c [mM],best Homo,best Hetero,MC 98% Homo lo,MC 98% Homo hi,MC 98% Hetero lo,MC 98% Hetero hi
1.0,8.82133326829859,9.164577607475037,8.645371186681906,8.997295349915273,8.979470888102272,9.349684326847802
1.0471285480508996,8.768324960902731,9.113564891761108,8.59023204684809,8.946417874957373,8.926387537468003,9.300742246054213
1.096478196143185,8.713359696252835,9.060670302105,8.533063619761883,8.893655772743788,8.869641687174745,9.251698917035256
1.1481536214968828,8.65638846064398,9.005846713726001,8.473916481235156,8.838860440052803,8.810004455592392,9.20168897185961
1.202264434617413,8.597364479405753,8.949049198113363,8.41243265643105,8.782296302380455,8.751645246646977,9.146453149579749
1.2589254117941673,8.536242756941132,8.890234552311076,8.346587509908671,8.725898003973592,8.6892837093318,9.091185395290353
1.318256738556407,8.472977756480791,8.829358967102964,8.278517874503054,8.667437638458528,8.62694303468304,9.031774899522889
1.3803842646028848,8.40752632754763,8.766380942087318,8.209247462869365,8.605805192225896,8.561653376016338,8.971108508158299
1.4454397707459274,8.339845628512652,8.701259195024928,8.136366241621806,8.543325015403498,8.493607911644377,8.90891047840548
1.5135612484362082,8.269899134360307,8.633958655590947,8.061635678038193,8.47816259068242,8.424125509553782,8.843791801628111
1.5848931924611136,8.197652310569604,8.564446124460009,7.984729048666369,8.410575572472837,8.350293118208771,8.778599130711246
1.6595869074375607,8.123071599913605,8.492689244562786,7.903664222536697,8.342478977290511,8.273669924196223,8.71170856492935
1.7378008287493754,8.04612679587865,8.41865885826431,7.822702848748495,8.269550743008804,8.19476260500243,8.64255511152619
1.8197008586099834,7.96679035834008,8.342328306164964,7.739424002724345,8.194156713955815,8.11395999465406,8.570696617675868
1.9054607179632472,7.885039200016127,8.263675196126083,7.653233861911737,8.116844538120517,8.030333845056454,8.497016547195713
1.9952623149688795,7.800854591872958,8.182681290790919,7.5648167314568635,8.036892452289052,7.944370186749868,8.42099239483197
2.0892961308540396,7.714220640871744,8.09933096710799,7.474542291134819,7.9538989906086695,7.856060690590285,8.342601243625696
2.1877616239495525,7.625126218889348,8.013613126823886,7.381564751161482,7.868687686617214,7.765399597881871,8.261826655765901
2.290867652767773,7.533568324866241,7.925524540154443,7.284439120594846,7.782697529137637,7.671397785015805,8.179651295293082
2.3988329190194904,7.439546832281839,7.835064574909846,7.184151764243141,7.694941900320537,7.576492364139246,8.093636785680445
2.51188643150958,7.343065343021268,7.742236032332955,7.081504999601032,7.604625686441503,7.479530779347693,8.004941285318218
2.6302679918953817,7.244138840157939,7.647052782390023,6.977338647920761,7.510939032395117,7.380155932776816,7.913949632003231
2.7542287033381663,7.142784584834246,7.549530643929021,6.87170627301596,7.413862896652532,7.278913409806347,7.820147878051695
2.884031503126606,7.039025015341505,7.449690268056483,6.762697683632502,7.315352347050507,7.175566534975325,7.723814001137641
3.019951720402016,6.932896069143381,7.347565445741303,6.653292080541142,7.21250005774562,7.0697494762296715,7.625381415252934
3.1622776601683795,6.824436844048062,7.243192756126552,6.538775780337369,7.110097907758755,6.962040978067901,7.524344534185203
3.311311214825911,6.713695982815524,7.136617940119784,6.423792902402629,7.003599063228418,6.852117552666641,7.421118327572927
3.4673685045253166,6.600731354936333,7.0278955732863295,6.307113795439188,6.894348914433479,6.740072810260823,7.315718336311836
3.630780547701014,6.485604250737821,6.917083253488854,6.185816272964248,6.785392228511395,6.625561077165769,7.208605429811938
3.8018939632056115,6.368387761115658,6.804249976852606,6.064344754994375,6.672430767236941,6.507689133248257,7.100810820456956
3.9810717055349722,6.2491657671807825,6.6894751266158385,5.9418606492935035,6.5564708850680615,6.3895723697301525,6.989377883501525
4.168693834703354,6.128025213532712,6.572840748827792,5.817045117640581,6.439005309424842,6.2693923277737955,6.8762891698817885
4.36515832240166,6.005058345340487,6.454433795302127,5.6901692754385085,6.319947415242465,6.147193429810255,6.761674160794
4.570881896148751,5.880365564529343,6.33434898931906,5.560748727323435,6.199982401735251,6.024135142019933,6.644562836618187
4.786300923226384,5.754076881255447,6.212710290415492,5.43167532293803,6.076478439572863,5.900751349498397,6.524669231332587
5.011872336272724,5.62638359390772,6.089702591614357,5.301180410030599,5.951586777784841,5.77634709909574,6.403058084132973
5.248074602497725,5.497415746663767,5.965449198181594,5.169421930428837,5.825409562898698,5.650081793053154,6.2808166033100346
5.495408738576245,5.367314667330891,5.840084390646792,5.036936204508195,5.697693130153588,5.522792795361934,6.157375985931651
5.7543993733715695,5.236188210943468,5.713708697502849,4.90338616755111,5.5689902543358265,5.396557902644588,6.03085949236111
6.025595860743578,5.104158747019115,5.586436915366647,4.770237384575759,5.438080109462471,5.269322402028064,5.903551428705231
6.309573444801933,4.971366617398549,5.458401603338437,4.636790206873911,5.3059430279231865,5.139647043716459,5.777156162960416
6.606934480075961,4.837951298414258,5.329734285050002,4.503068681510319,5.172833915318197,5.010577774916484,5.648890795183519
6.918309709189364,4.704050635771438,5.20056472646316,4.369206330801446,5.03889494074143,4.882345795121933,5.518783657804387
7.244359600749901,4.569824912345768,5.0710450492366475,4.235387904015109,4.9042619206764275,4.753986150788895,5.3881039476843995
7.5857757502918375,4.435438321742824,4.9413312520590775,4.101051450241696,4.7698251932439515,4.625406048660952,5.257256455457203
7.943282347242816,4.301042367294928,4.811566659122159,3.967441653630865,4.63464308095899,4.496732218676791,5.126401099567526
8.31763771102671,4.16678886299609,4.68189497168592,3.8358089217874,4.49776880420478,4.36930999662924,4.9944799467426
8.709635899560807,4.032842404377926,4.552472790151839,3.7039431992432865,4.361741609512566,4.242251699397902,4.862693880905776
9.120108393559097,3.899356158934929,4.423445455637386,3.5727511343683744,4.225961183501483,4.115337841131948,4.731553070142823
9.549925860214358,3.7664861610346443,4.294961395356296,3.442647837789268,4.09032448428002,3.989447906648056,4.600474884064536
10.0,3.634394073980652,4.167174933837022,3.3136422605076135,3.955145887453691,3.8642939302430497,4.4700559374309945
14.89795918367347,2.5449008176910377,3.1106700841719466,2.264445447472728,2.8253561879093474,2.8465985444598982,3.374741623883995
19.79591836734694,1.856320362927752,2.439913071639497,1.6164022626343364,2.0962384632211677,2.218537178718513,2.6612889645604816
24.693877551020407,1.3859120501065252,1.9798502405862664,1.1808769588030554,1.590947141409995,1.7884313427843967,2.171269138388136
29.591836734693878,1.0463410665466792,1.6474497299411344,0.8709127389608873,1.2217693941324712,1.4779119309822817,1.816987528899987
34.48979591836735,0.7908884262964082,1.3981147016166575,0.639490518587195,0.9422863340056215,1.246996858624692,1.549232544608623
39.38775510204081,0.5924399569916656,1.2049346647945214,0.4613302227869429,0.7235496911963883,1.0672343270195346,1.3426350025695082
44.285714285714285,0.434225777574631,1.0512949642795562,0.32007666342266833,0.5483748917265936,0.9193433677537728,1.1832465608053395
49.183673469387756,0.3053787937049077,0.9264508726071838,0.2038847211736235,0.40687286623619195,0.7995203833475382,1.0533813618668295
54.08163265306123,0.19856522048987335,0.8231654634621015,0.10955261542394729,0.2875778255557994,0.7017966947849575,0.9445342321392455
58.9795918367347,0.10867043959112666,0.7364012630573309,0.026461435210865678,0.19087944397138762,0.6147745202207783,0.8580280058938835
63.87755102040816,0.03202271833361081,0.6625484420908574,-0.04245984705196518,0.1065052837191868,0.5420857435343571,0.7830111406473577
68.77551020408163,-0.03405830332086213,0.5989767144940021,-0.10235785724553684,0.034241250603812584,0.47778396943697865,0.7201694595510256
73.6734693877551,-0.09159017654585755,0.5437093658011154,-0.1548058823982541,-0.028374470693460996,0.42036332267538357,0.6670554089268472
78.57142857142857,-0.14211315770911925,0.4952397109349804,-0.19999340610773675,-0.08423290931050176,0.3708394936171989,0.6196399282527619
83.46938775510205,-0.18681942579709165,0.452403383281033,-0.24055625956881746,-0.13308259202536585,0.32941338797838005,0.575393378583686
88.36734693877551,-0.22664881795289915,0.4142837571630569,-0.27757308391868335,-0.17572455198711495,0.2906016354122379,0.5379658789138758
93.26530612244898,-0.2623528247177349,0.3801488490280711,-0.31133470844991745,-0.21337094098555234,0.2530206323026664,0.5072770657534758
98.16326530612245,-0.2945300294616464,0.3494165771458837,-0.34193828356443684,-0.247121775358856,0.21897007941321148,0.47986307487855595
103.06122448979592,-0.32367454344812474,0.3216068759539952,-0.3701238724951811,-0.2772252144010684,0.19047456559937762,0.45273918630861276
107.9591836734694,-0.3501925854011825,0.29632555149962236,-0.39638961853165455,-0.3039955522707104,0.16240998547744154,0.43024111752180316
112.85714285714286,-0.37441904022978045,0.2732480696800281,-0.42001804680655325,-0.32882003365300766,0.13713163103117254,0.4093645083288837
117.75510204081633,-0.3966359916535076,0.2521013023250944,-0.44231978173039915,-0.35095220157661605,0.11345901475124007,0.39074358989894875
122.6530612244898,-0.41707898308328906,0.2326574917245372,-0.46363888365031375,-0.37051908251626436,0.09167852356649303,0.3736364598825814
127.55102040816327,-0.43594972961067313,0.2147217221294695,-0.48336540432645153,-0.38853405489489473,0.07173335350473628,0.3577100907542027
132.44897959183675,-0.4534219264137427,0.19812626164508762,-0.5014740418841467,-0.4053698109433387,0.05304029639674304,0.3432122268934322
137.3469387755102,-0.46964297032562063,0.1827289645025827,-0.5183223840535797,-0.42096355659766155,0.03586026858861885,0.32959766041654653
142.24489795918367,-0.4847413714741715,0.16840596203475267,-0.5342525922457625,-0.43523015070258053,0.019606526465363622,0.3172053976041417
147.14285714285714,-0.49882871980173116,0.15504978164028893,-0.5489676720307803,-0.448689767572682,0.004673724775470678,0.3054258385051072
152.0408163265306,-0.5120019175661885,0.14256718585861172,-0.5629503297247459,-0.4610535054076311,-0.00908810207271113,0.2942224737899346
156.9387755102041,-0.52434589464012,0.13087651729212535,-0.5762204157182506,-0.4724713735619895,-0.02206913823574999,0.28382217282000066
161.83673469387756,-0.5359344231395244,0.11990693487943549,-0.5890124906708218,-0.48285635560822704,-0.03433436934164205,0.274148239100513
166.73469387755102,-0.5468328628358621,0.1095957116971431,-0.600792480656958,-0.4928732450147662,-0.04625635938962705,0.26544778278391323
171.6326530612245,-0.5571005671346199,0.09988586582176584,-0.6113911017159038,-0.5028100325533359,-0.05734692240511116,0.25711865404864287
176.53061224489795,-0.5667906236074685,0.09072645133003254,-0.6216374226512684,-0.5119438245636685,-0.06773493970196354,0.24918784236202862
181.42857142857144,-0.5759496786809919,0.08207276070212322,-0.6311817004713002,-0.5207176568906836,-0.07748609835254552,0.24163161975679195
186.3265306122449,-0.5846193744497765,0.07388491136999464,-0.6406133953129605,-0.5286253535865926,-0.08671670731671088,0.23448653005670017
191.22448979591837,-0.5928372656203114,0.06612694898798255,-0.6498048529875896,-0.5358696782530331,-0.0954660325003294,0.2277199304762945
196.12244897959184,-0.6006372027570857,0.05876648173631294,-0.658673086383323,-0.5426013191308483,-0.1037705418928501,0.22130350536547597
201.0204081632653,-0.6080497154091447,0.05177431247895026,-0.666800752259494,-0.5492986785587953,-0.11166256850024275,0.21521119345814327
205.9183673469388,-0.6151024129246085,0.04512405130120012,-0.6741193108072117,-0.5560855150420054,-0.11917152023718913,0.20941962283958937
210.81632653061226,-0.6218202441406131,0.03879186751788399,-0.6807214105935931,-0.562919077687633,-0.12632390539872923,0.20390764043449722
215.71428571428572,-0.6282256602546474,0.03275633707967396,-0.686979009176984,-0.5694723113323109,-0.13314334630229577,0.19865602046164368
220.6122448979592,-0.6343393093849472,0.026997757066645978,-0.6931316902194338,-0.5755469285504606,-0.13965175894114382,0.19364727307443577
225.51020408163265,-0.6401805674513072,0.021497622803965832,-0.6994270825548838,-0.5809340523477307,-0.14587033800904242,0.1888655836169741
230.40816326530611,-0.6457669419432963,0.016239231173705626,-0.7054450776311084,-0.5860888062554842,-0.15181790837432807,0.18429637072173932
235.3061224489796,-0.6511143795375691,0.011207379281103602,-0.7113569996124186,-0.5908717594627196,-0.1575114538956483,0.1799262124578555
240.20408163265307,-0.656237466908633,0.006388169233280561,-0.7167991303352866,-0.5956758034819795,-0.16296627142250397,0.1757426098890651
245.10204081632654,-0.6611497151929968,0.0017687286581304917,-0.7221742080681791,-0.6001252223178145,-0.1681968870964331,0.17173434441269408
250.0,-0.6658632911073075,-0.0026625159619313443,-0.7273580895240642,-0.6043684926905507,-0.17321590218053223,0.16789087025666954
