c [mM],best Homo,best Hetero,MC 75% Homo lo,MC 75% Homo hi,MC 75% Hetero lo,MC 75% Hetero hi
1.0,8.82133326829859,9.164577607475037,8.730331921082957,8.912334615514222,9.066453163388328,9.262702051561746
1.0471285480508996,8.768324960902731,9.113564891761108,8.676820344798761,8.859829577006701,9.014635761112492,9.212494022409723
1.096478196143185,8.713359696252835,9.060670302105,8.620813231966915,8.805906160538756,8.960495268994404,9.160845335215598
1.1481536214968828,8.65638846064398,9.005846713726001,8.56313064460753,8.74964627668043,8.904516566834092,9.10717686061791
1.202264434617413,8.597364479405753,8.949049198113363,8.502556003686365,8.692172955125141,8.847445207752301,9.050653188474424
1.2589254117941673,8.536242756941132,8.890234552311076,8.439636121986371,8.632849391895892,8.786555458339555,8.993913646282598
1.318256738556407,8.472977756480791,8.829358967102964,8.374540061852734,8.571415451108848,8.725391314053631,8.933326620152297
1.3803842646028848,8.40752632754763,8.766380942087318,8.307510958281906,8.507541696813355,8.661273801231888,8.871488082942749
1.4454397707459274,8.339845628512652,8.701259195024928,8.237502640731323,8.442188616293981,8.595194109490865,8.80732428055899
1.5135612484362082,8.269899134360307,8.633958655590947,8.165519336227387,8.374278932493226,8.526409464171596,8.741507847010297
1.5848931924611136,8.197652310569604,8.564446124460009,8.09075159270787,8.304553028431338,8.454994936168715,8.673897312751302
1.6595869074375607,8.123071599913605,8.492689244562786,8.014163996365113,8.231979203462096,8.381870775366469,8.603507713759104
1.7378008287493754,8.04612679587865,8.41865885826431,7.934336424371395,8.157917167385904,8.306033090036589,8.531284626492031
1.8197008586099834,7.96679035834008,8.342328306164964,7.852773804013463,8.080806912666697,8.227303383888184,8.457353228441743
1.9054607179632472,7.885039200016127,8.263675196126083,7.769033026222124,8.001045373810129,8.14672971362487,8.380620678627297
1.9952623149688795,7.800854591872958,8.182681290790919,7.682258107480321,7.919451076265595,8.063445400667149,8.301917180914689
2.0892961308540396,7.714220640871744,8.09933096710799,7.592339263769897,7.836102017973591,7.97743606487343,8.22122586934255
2.1877616239495525,7.625126218889348,8.013613126823886,7.501640696259608,7.748611741519088,7.889140317861978,8.138085935785794
2.290867652767773,7.533568324866241,7.925524540154443,7.408728237423805,7.6584084123086775,7.79962568082227,8.051423399486616
2.3988329190194904,7.439546832281839,7.835064574909846,7.3109898755934015,7.5681037889702765,7.7062536753996564,7.9638754744200355
2.51188643150958,7.343065343021268,7.742236032332955,7.212376214025864,7.4737544720166715,7.611672218664908,7.872799846001002
2.6302679918953817,7.244138840157939,7.647052782390023,7.1107494607886474,7.377528219527231,7.5144126870252945,7.779692877754752
2.7542287033381663,7.142784584834246,7.549530643929021,7.00676769882503,7.278801470843462,7.414562253634682,7.68449903422336
2.884031503126606,7.039025015341505,7.449690268056483,6.900131952696647,7.177918077986362,7.311648167162021,7.587732368950945
3.019951720402016,6.932896069143381,7.347565445741303,6.791341048335219,7.074451089951544,7.207922608934806,7.4872082825478
3.1622776601683795,6.824436844048062,7.243192756126552,6.681135133557297,6.967738554538827,7.102287992749153,7.3840975195039515
3.311311214825911,6.713695982815524,7.136617940119784,6.568467898239304,6.858924067391743,6.993991332271249,7.279244547968319
3.4673685045253166,6.600731354936333,7.0278955732863295,6.453135476594843,6.7483272332778235,6.88318389487149,7.172607251701169
3.630780547701014,6.485604250737821,6.917083253488854,6.336582696766984,6.634625804708659,6.769921578092828,7.06424492888488
3.8018939632056115,6.368387761115658,6.804249976852606,6.2175214310290245,6.519254091202291,6.655621428580325,6.952878525124888
3.9810717055349722,6.2491657671807825,6.6894751266158385,6.0960057060888655,6.4023258282727,6.538728304527739,6.840221948703938
4.168693834703354,6.128025213532712,6.572840748827792,5.972053392867509,6.283997034197914,6.420665961397839,6.725015536257745
4.36515832240166,6.005058345340487,6.454433795302127,5.84763574597401,6.162480944706964,6.300767644118071,6.608099946486183
4.570881896148751,5.880365564529343,6.33434898931906,5.721344524415155,6.03938660464353,6.178800433439044,6.489897545199076
4.786300923226384,5.754076881255447,6.212710290415492,5.592568597713657,5.915585164797236,6.0551736340345315,6.370246946796453
5.011872336272724,5.62638359390772,6.089702591614357,5.463575597205366,5.789191590610074,5.931121486354234,6.248283696874479
5.248074602497725,5.497415746663767,5.965449198181594,5.33389637605083,5.660935117276705,5.805691732821831,6.125206663541357
5.495408738576245,5.367314667330891,5.840084390646792,5.202658562131328,5.531970772530455,5.679944366539389,6.000224414754196
5.7543993733715695,5.236188210943468,5.713708697502849,5.070800294416764,5.401576127470173,5.553289122360278,5.87412827264542
6.025595860743578,5.104158747019115,5.586436915366647,4.937707345066557,5.270610148971673,5.42579252938601,5.747081301347285
6.309573444801933,4.971366617398549,5.458401603338437,4.804356450697391,5.138376784099707,5.297932273200869,5.618870933476005
6.606934480075961,4.837951298414258,5.329734285050002,4.670525483901624,5.005377112926892,5.169499683779615,5.489968886320388
6.918309709189364,4.704050635771438,5.20056472646316,4.536449890734776,4.8716513808081,5.040752513269582,5.360376939656738
7.244359600749901,4.569824912345768,5.0710450492366475,4.401999043563414,4.7376507811281225,4.911756887714634,5.230333210758661
7.5857757502918375,4.435438321742824,4.9413312520590775,4.267817080180621,4.603059563305027,4.782701414193909,5.099961089924246
7.943282347242816,4.301042367294928,4.811566659122159,4.133704100187435,4.46838063440242,4.653888184268832,4.969245133975485
8.31763771102671,4.16678886299609,4.68189497168592,4.000119437465296,4.333458288526884,4.524998889818591,4.838791053553249
8.709635899560807,4.032842404377926,4.552472790151839,3.8670154581377814,4.198669350618071,4.396658763426991,4.7082868168766865
9.120108393559097,3.899356158934929,4.423445455637386,3.7346082489176577,4.0641040689522,4.268535491054806,4.578355420219966
9.549925860214358,3.7664861610346443,4.294961395356296,3.603306975488825,3.9296653465804634,4.141890288442612,4.44803250226998
10.0,3.634394073980652,4.167174933837022,3.4725794997329342,3.79620864822837,4.015910245322491,4.318439622351553
14.89795918367347,2.5449008176910377,3.1106700841719466,2.403215592110217,2.6865860432718582,2.9791242518820513,3.242215916461842
19.79591836734694,1.856320362927752,2.439913071639497,1.7352275416092409,1.9774131842462632,2.3316877808323144,2.54813836244668
24.693877551020407,1.3859120501065252,1.9798502405862664,1.2831437271574664,1.488680373055584,1.8894737949995248,2.0702266861730076
29.591836734693878,1.0463410665466792,1.6474497299411344,0.9578633981878177,1.1348187349055407,1.568572140023599,1.7263273198586697
34.48979591836735,0.7908884262964082,1.3981147016166575,0.7146961446502512,0.8670807079425652,1.3281411633268168,1.4680882399064983
39.38775510204081,0.5924399569916656,1.2049346647945214,0.5266364695770649,0.6582434444062664,1.1408789797119123,1.2689903498771304
44.285714285714285,0.434225777574631,1.0512949642795562,0.3768683264530024,0.4915832286962596,0.9894902118632496,1.1130997166958627
49.183673469387756,0.3053787937049077,0.9264508726071838,0.25448365064229006,0.3562739367675254,0.8665975101808056,0.9863042350335621
54.08163265306123,0.19856522048987335,0.8231654634621015,0.15365059394543068,0.24347984703431602,0.7638759268187775,0.8824550001054255
58.9795918367347,0.10867043959112666,0.7364012630573309,0.06894537438694925,0.14839550479530406,0.6775290255983394,0.7952735005163224
63.87755102040816,0.03202271833361081,0.6625484420908574,-0.003960181266030149,0.06800561793325177,0.6028724214133565,0.7222244627683583
68.77551020408163,-0.03405830332086213,0.5989767144940021,-0.06677294526647459,-0.0013436613752496607,0.5386830089456577,0.6592704200423466
73.6734693877551,-0.09159017654585755,0.5437093658011154,-0.12191744622706002,-0.061262906864655076,0.4827585759737605,0.6046601556284703
78.57142857142857,-0.14211315770911925,0.4952397109349804,-0.1705611099418427,-0.1136652054763958,0.4337874010071754,0.5566920208627855
83.46938775510205,-0.18681942579709165,0.452403383281033,-0.21361550854682643,-0.16002334304735688,0.39100242477983393,0.5138043417822321
88.36734693877551,-0.22664881795289915,0.4142837571630569,-0.2521145861181985,-0.20118304978759982,0.3515708988304327,0.47699661549568106
93.26530612244898,-0.2623528247177349,0.3801488490280711,-0.2872561317646337,-0.2374495176708361,0.31648796580357674,0.4438097322525655
98.16326530612245,-0.2945300294616464,0.3494165771458837,-0.31901761236685566,-0.27004244655643717,0.28470799262294644,0.41412516166882096
103.06122448979592,-0.32367454344812474,0.3216068759539952,-0.3475463153439202,-0.29980277155232926,0.25572449910080586,0.3874892528071845
107.9591836734694,-0.3501925854011825,0.29632555149962236,-0.37393662466988653,-0.3264485461324784,0.22934222622587208,0.36330887677337265
112.85714285714286,-0.37441904022978045,0.2732480696800281,-0.3981813504633439,-0.350656729996217,0.2060301553598871,0.34046598400016914
117.75510204081633,-0.3966359916535076,0.2521013023250944,-0.42015726075728,-0.3731147225497352,0.18400481654386824,0.3201977881063206
122.6530612244898,-0.41707898308328906,0.2326574917245372,-0.44074412408142294,-0.3934138420851552,0.16401704360357072,0.3012979398455037
127.55102040816327,-0.43594972961067313,0.2147217221294695,-0.4599396284027134,-0.41195983081863286,0.14516962972859904,0.28427381453033995
132.44897959183675,-0.4534219264137427,0.19812626164508762,-0.4777089308572081,-0.42913492197027725,0.12796329984647836,0.2682892234436969
137.3469387755102,-0.46964297032562063,0.1827289645025827,-0.49407872057284274,-0.4452072200783985,0.11220100575145864,0.25325692325370674
142.24489795918367,-0.4847413714741715,0.16840596203475267,-0.5095295264346124,-0.45995321651373067,0.09713554014537484,0.2396763839241305
147.14285714285714,-0.49882871980173116,0.15504978164028893,-0.5237148452153988,-0.4739425943880635,0.08325519220422783,0.22684437107635003
152.0408163265306,-0.5120019175661885,0.14256718585861172,-0.5374076947346547,-0.48659614039772237,0.07005036295521139,0.21508400876201206
156.9387755102041,-0.52434589464012,0.13087651729212535,-0.5499322349066992,-0.4987595543735409,0.05778986517582485,0.20396316940842585
161.83673469387756,-0.5359344231395244,0.11990693487943549,-0.5617279536295119,-0.510140892649537,0.04630301197064168,0.1935108577882293
166.73469387755102,-0.5468328628358621,0.1095957116971431,-0.5729427919094131,-0.520722933762311,0.03544397056175774,0.18374745283252847
171.6326530612245,-0.5571005671346199,0.09988586582176584,-0.5833559669208553,-0.5308451673483844,0.02520902573465167,0.17456270590888
176.53061224489795,-0.5667906236074685,0.09072645133003254,-0.5933517352866603,-0.5402295119282766,0.015646849976821642,0.16580605268324344
181.42857142857144,-0.5759496786809919,0.08207276070212322,-0.6029088681170288,-0.548990489244955,0.0062123316138239515,0.15793318979042248
186.3265306122449,-0.5846193744497765,0.07388491136999464,-0.611941514933786,-0.557297233965767,-0.0023958380856360373,0.15016566082562532
191.22448979591837,-0.5928372656203114,0.06612694898798255,-0.6207354241333859,-0.5649391071072368,-0.010569479409365479,0.14282337738533057
196.12244897959184,-0.6006372027570857,0.05876648173631294,-0.628856512055654,-0.5724178934585173,-0.018265760386206198,0.13579872385883207
201.0204081632653,-0.6080497154091447,0.05177431247895026,-0.6365528790730791,-0.5795465517452102,-0.025632360787090747,0.12918098574499126
205.9183673469388,-0.6151024129246085,0.04512405130120012,-0.6438104809491264,-0.5863943449000907,-0.03270568586051448,0.12295378846291471
210.81632653061226,-0.6218202441406131,0.03879186751788399,-0.650903878965712,-0.5927366093155142,-0.03944878021882803,0.11703251525459601
215.71428571428572,-0.6282256602546474,0.03275633707967396,-0.6574479681707915,-0.5990033523385033,-0.04593238003090072,0.11144505419024864
220.6122448979592,-0.6343393093849472,0.026997757066645978,-0.6638401902967126,-0.6048384284731818,-0.052168841354530704,0.10616435548782266
225.51020408163265,-0.6401805674513072,0.021497622803965832,-0.6700377700702234,-0.6103233648323911,-0.05810115007879901,0.10109639568673068
230.40816326530611,-0.6457669419432963,0.016239231173705626,-0.6758207551454245,-0.6157131287411681,-0.06348517687967004,0.09596363922708129
235.3061224489796,-0.6511143795375691,0.011207379281103602,-0.6813830273071232,-0.620845731768015,-0.06863509199711215,0.09104985055931936
240.20408163265307,-0.656237466908633,0.006388169233280561,-0.6866721297818901,-0.625802804035376,-0.07375333666392525,0.08652967513048637
245.10204081632654,-0.6611497151929968,0.0017687286581304917,-0.6918077527612277,-0.6304916776247659,-0.07855374711322771,0.0820912044294887
250.0,-0.6658632911073075,-0.0026625159619313443,-0.6967393884621008,-0.6349871937525141,-0.08319313213324864,0.07786810020938595
