c [mM],best Homo,best Hetero,MC 95% Homo lo,MC 95% Homo hi,MC 95% Hetero lo,MC 95% Hetero hi
1.0,8.82133326829859,9.164577607475037,8.671972261239079,8.9706942753581,9.002200158488364,9.32695505646171
1.0471285480508996,8.768324960902731,9.113564891761108,8.616872753674594,8.919777168130869,8.949751489617805,9.27737829390441
1.096478196143185,8.713359696252835,9.060670302105,8.560606067226516,8.866113325279155,8.894975993732983,9.226364610477019
1.1481536214968828,8.65638846064398,9.005846713726001,8.500601492674507,8.812175428613452,8.838734925252403,9.172958502199599
1.202264434617413,8.597364479405753,8.949049198113363,8.439141640960933,8.755587317850573,8.78076848144774,9.117329914778985
1.2589254117941673,8.536242756941132,8.890234552311076,8.375612516799654,8.69687299708261,8.720222034047001,9.060247070575151
1.318256738556407,8.472977756480791,8.829358967102964,8.307952662701116,8.638002850260467,8.657647938291703,9.001069995914225
1.3803842646028848,8.40752632754763,8.766380942087318,8.23954951667087,8.575503138424391,8.59274247259311,8.940019411581526
1.4454397707459274,8.339845628512652,8.701259195024928,8.168987647920538,8.510703609104766,8.524233129372618,8.878285260677238
1.5135612484362082,8.269899134360307,8.633958655590947,8.096111489838407,8.443686778882206,8.45410165882023,8.813815652361663
1.5848931924611136,8.197652310569604,8.564446124460009,8.020431073694088,8.37487354744512,8.382237109681567,8.74665513923845
1.6595869074375607,8.123071599913605,8.492689244562786,7.942883011419151,8.303260188408057,8.307318230834394,8.678060258291179
1.7378008287493754,8.04612679587865,8.41865885826431,7.862860511710895,8.229393080046403,8.228878708962512,8.608439007566108
1.8197008586099834,7.96679035834008,8.342328306164964,7.7784659028121705,8.15511481386799,8.149828795858776,8.534827816471152
1.9054607179632472,7.885039200016127,8.263675196126083,7.693688672753566,8.076389727278688,8.068333623285596,8.45901676896657
1.9952623149688795,7.800854591872958,8.182681290790919,7.60398766201736,7.997721521728556,7.9838715082708385,8.381491073311
2.0892961308540396,7.714220640871744,8.09933096710799,7.512438462121786,7.916002819621703,7.896977885170206,8.301684049045775
2.1877616239495525,7.625126218889348,8.013613126823886,7.418790859633184,7.831461578145513,7.808197465223277,8.219028788424495
2.290867652767773,7.533568324866241,7.925524540154443,7.322124348213548,7.745012301518934,7.716896412626182,8.134152667682704
2.3988329190194904,7.439546832281839,7.835064574909846,7.224604805962253,7.654488858601425,7.623107511969345,8.047021637850346
2.51188643150958,7.343065343021268,7.742236032332955,7.122730653390564,7.5634000326519715,7.526091932129967,7.958380132535943
2.6302679918953817,7.244138840157939,7.647052782390023,7.018523585343455,7.469754094972424,7.427489062357432,7.866616502422615
2.7542287033381663,7.142784584834246,7.549530643929021,6.912267587300499,7.373301582367993,7.325940781277071,7.773120506580971
2.884031503126606,7.039025015341505,7.449690268056483,6.803570802863086,7.274479227819923,7.221330056441453,7.678050479671513
3.019951720402016,6.932896069143381,7.347565445741303,6.693326319349349,7.172465818937414,7.1144128636112205,7.580718027871385
3.1622776601683795,6.824436844048062,7.243192756126552,6.579642962442576,7.069230725653548,7.006654263963714,7.47973124828939
3.311311214825911,6.713695982815524,7.136617940119784,6.464222377242442,6.963169588388605,6.895618043873442,7.3776178363661264
3.4673685045253166,6.600731354936333,7.0278955732863295,6.346260706344229,6.855202003528437,6.783248783287266,7.272542363285393
3.630780547701014,6.485604250737821,6.917083253488854,6.227222197029116,6.743986304446526,6.669206613900067,7.164959893077641
3.8018939632056115,6.368387761115658,6.804249976852606,6.104544612392628,6.632230909838688,6.55324625078025,7.055253702924963
3.9810717055349722,6.2491657671807825,6.6894751266158385,5.981668986415929,6.516662547945636,6.435402174607143,6.943548078624534
4.168693834703354,6.128025213532712,6.572840748827792,5.8564105491338445,6.399639877931579,6.314938631324136,6.830742866331448
4.36515832240166,6.005058345340487,6.454433795302127,5.729008107406006,6.281108583274968,6.193683911393819,6.715183679210435
4.570881896148751,5.880365564529343,6.33434898931906,5.601856515265795,6.15887461379289,6.070440262991136,6.598257715646984
4.786300923226384,5.754076881255447,6.212710290415492,5.472411171603589,6.035742590907304,5.946107241636054,6.47931333919493
5.011872336272724,5.62638359390772,6.089702591614357,5.341889955904769,5.910877231910671,5.821425365641861,6.357979817586852
5.248074602497725,5.497415746663767,5.965449198181594,5.210477381860369,5.784354111467166,5.695120320075633,6.235778076287556
5.495408738576245,5.367314667330891,5.840084390646792,5.078762014241042,5.65586732042074,5.5693946377368855,6.110774143556699
5.7543993733715695,5.236188210943468,5.713708697502849,4.946875057368219,5.525501364518718,5.441722903269071,5.985694491736627
6.025595860743578,5.104158747019115,5.586436915366647,4.814227237079896,5.394090256958334,5.313540874099722,5.859332956633573
6.309573444801933,4.971366617398549,5.458401603338437,4.680039775983513,5.262693458813585,5.184937442336714,5.731865764340161
6.606934480075961,4.837951298414258,5.329734285050002,4.546247335304169,5.129655261524348,5.0560660909253095,5.603402479174694
6.918309709189364,4.704050635771438,5.20056472646316,4.411340386379362,4.996760885163513,4.927078102584982,5.4740513503413375
7.244359600749901,4.569824912345768,5.0710450492366475,4.276520847605598,4.863128977085939,4.798122173089118,5.3439679253841765
7.5857757502918375,4.435438321742824,4.9413312520590775,4.142615257729976,4.728261385755672,4.669778853005988,5.2128836511121674
7.943282347242816,4.301042367294928,4.811566659122159,4.007923405158742,4.594161329431113,4.541324115568969,5.081809202675348
8.31763771102671,4.16678886299609,4.68189497168592,3.8754034502134624,4.458174275778718,4.413302197313885,4.950487746057955
8.709635899560807,4.032842404377926,4.552472790151839,3.742915948566659,4.322768860189194,4.28592208957421,4.819023490729468
9.120108393559097,3.899356158934929,4.423445455637386,3.6112253885193284,4.18748692935053,4.15916769328316,4.6877232179916115
9.549925860214358,3.7664861610346443,4.294961395356296,3.4802411056523024,4.052731216416986,4.033198378246997,4.556724412465595
10.0,3.634394073980652,4.167174933837022,3.3510488090054023,3.917739338955902,3.9085279478849966,4.425821919789048
14.89795918367347,2.5449008176910377,3.1106700841719466,2.299657598921833,2.7901440364602426,2.891191167566171,3.3301490007777224
19.79591836734694,1.856320362927752,2.439913071639497,1.6478318776506538,2.0648088482048506,2.2539309520829214,2.625895191196073
24.693877551020407,1.3859120501065252,1.9798502405862664,1.2104771383652069,1.5613469618478435,1.823492066016497,2.1362084151560357
29.591836734693878,1.0463410665466792,1.6474497299411344,0.8980301462488162,1.1946519868445422,1.510110049736658,1.7847894101456108
34.48979591836735,0.7908884262964082,1.3981147016166575,0.6631276302506977,0.9186492223421188,1.2754558636896158,1.5207735395436992
39.38775510204081,0.5924399569916656,1.2049346647945214,0.48128312222907865,0.7035967917542526,1.0928916163056979,1.316977713283345
44.285714285714285,0.434225777574631,1.0512949642795562,0.3371086068875162,0.5313429482617458,0.9443878534064566,1.1582020751526558
49.183673469387756,0.3053787937049077,0.9264508726071838,0.21950135732139478,0.3912562300884207,0.8240235204576463,1.0288782247567214
54.08163265306123,0.19856522048987335,0.8231654634621015,0.12281393703094444,0.27431650394880225,0.7207137562445173,0.9256171706796857
58.9795918367347,0.10867043959112666,0.7364012630573309,0.04102115193661132,0.176319727245642,0.6340442857470641,0.8387582403675977
63.87755102040816,0.03202271833361081,0.6625484420908574,-0.029025405475331757,0.09307084214255337,0.5602120004047999,0.7648848837769149
68.77551020408163,-0.03405830332086213,0.5989767144940021,-0.08890856253315962,0.020791955891435364,0.49716181093746026,0.700791618050544
73.6734693877551,-0.09159017654585755,0.5437093658011154,-0.14181503397545991,-0.04136531911625519,0.44114997358121044,0.6462687580210204
78.57142857142857,-0.14211315770911925,0.4952397109349804,-0.18947055371740007,-0.09475576170083844,0.39241836449861195,0.5980610573713488
83.46938775510205,-0.18681942579709165,0.452403383281033,-0.231059858302607,-0.1425789932915763,0.3476209054954805,0.5571858610665855
88.36734693877551,-0.22664881795289915,0.4142837571630569,-0.2687534737561035,-0.18454416214969482,0.3088520658719258,0.5197154484541879
93.26530612244898,-0.2623528247177349,0.3801488490280711,-0.3036740204382768,-0.22103162899719303,0.27337861849241585,0.4869190795637264
98.16326530612245,-0.2945300294616464,0.3494165771458837,-0.33474668891644555,-0.2543133700068473,0.24092004599292172,0.4579131082988457
103.06122448979592,-0.32367454344812474,0.3216068759539952,-0.36334578956129204,-0.28400329733495744,0.2114173408831529,0.43179641102483746
107.9591836734694,-0.3501925854011825,0.29632555149962236,-0.38918775073945944,-0.3111974200629055,0.18501007707008194,0.4076410259291628
112.85714285714286,-0.37441904022978045,0.2732480696800281,-0.413483958039672,-0.33535412241988893,0.16084249744393864,0.3856536419161176
117.75510204081633,-0.3966359916535076,0.2521013023250944,-0.4361371542427989,-0.3571348290642163,0.13876597141878377,0.3654366332314051
122.6530612244898,-0.41707898308328906,0.2326574917245372,-0.45665779849525284,-0.37750016767132527,0.11808970159107902,0.3472252818579954
127.55102040816327,-0.43594972961067313,0.2147217221294695,-0.4759879367378096,-0.39591152248353667,0.09899405536717507,0.3304493888917639
132.44897959183675,-0.4534219264137427,0.19812626164508762,-0.49353393085529146,-0.4133099219721939,0.08170075638778491,0.31455176690239034
137.3469387755102,-0.46964297032562063,0.1827289645025827,-0.5103780519307686,-0.4289078887204727,0.06422529691036112,0.3012326320948043
142.24489795918367,-0.4847413714741715,0.16840596203475267,-0.5257115220746081,-0.4437712208737349,0.04900910070191017,0.28780282336759516
147.14285714285714,-0.49882871980173116,0.15504978164028893,-0.5403056543405618,-0.45735178526290055,0.03497001515776868,0.2751295481228092
152.0408163265306,-0.5120019175661885,0.14256718585861172,-0.5541904662510534,-0.4698133688813236,0.02190289445004172,0.2632314772671817
156.9387755102041,-0.52434589464012,0.13087651729212535,-0.566981692501619,-0.4817100967786211,0.008713345240738288,0.2530396893435124
161.83673469387756,-0.5359344231395244,0.11990693487943549,-0.5791752586682763,-0.49269358761077253,-0.0026794326121481332,0.24249330237101913
166.73469387755102,-0.5468328628358621,0.1095957116971431,-0.590680165019314,-0.5029855606524102,-0.014529561526230472,0.23372098492051668
171.6326530612245,-0.5571005671346199,0.09988586582176584,-0.6013017557608139,-0.5128993785084258,-0.025658011527811414,0.2254297431713431
176.53061224489795,-0.5667906236074685,0.09072645133003254,-0.6116366637935317,-0.5219445834214053,-0.035475899288087476,0.21692880194815256
181.42857142857144,-0.5759496786809919,0.08207276070212322,-0.6214698242164357,-0.5304295331455481,-0.044649109885536414,0.20879463128978284
186.3265306122449,-0.5846193744497765,0.07388491136999464,-0.6306446034484857,-0.5385941454510673,-0.05314853212604012,0.2009183548660294
191.22448979591837,-0.5928372656203114,0.06612694898798255,-0.6392265235787081,-0.5464480076619146,-0.06130942061973302,0.19356331859569811
196.12244897959184,-0.6006372027570857,0.05876648173631294,-0.6477362159290679,-0.5535381895851034,-0.06937424595685965,0.18690720942948552
201.0204081632653,-0.6080497154091447,0.05177431247895026,-0.6558309247706362,-0.5602685060476531,-0.07727627146210864,0.18082489642000915
205.9183673469388,-0.6151024129246085,0.04512405130120012,-0.6635399788872756,-0.5666648469619415,-0.0847671154844794,0.17501521808687964
210.81632653061226,-0.6218202441406131,0.03879186751788399,-0.6708541849601366,-0.5727863033210896,-0.09190214924662604,0.16948588428239403
215.71428571428572,-0.6282256602546474,0.03275633707967396,-0.6780453704494127,-0.5784059500598822,-0.09870487165912026,0.16421754581846817
220.6122448979592,-0.6343393093849472,0.026997757066645978,-0.684698708656291,-0.5839799101136034,-0.10494336259026388,0.15893887672355583
225.51020408163265,-0.6401805674513072,0.021497622803965832,-0.690884315582552,-0.5894768193200625,-0.11067283532523789,0.15366808093316955
230.40816326530611,-0.6457669419432963,0.016239231173705626,-0.6969736674491249,-0.5945602164374677,-0.11612203039821578,0.14860049274562703
235.3061224489796,-0.6511143795375691,0.011207379281103602,-0.7025960976812539,-0.5996326613938844,-0.12169025836854333,0.14410501693075053
240.20408163265307,-0.656237466908633,0.006388169233280561,-0.708370671014851,-0.6041042628024151,-0.12714636308113195,0.13992270154769307
245.10204081632654,-0.6611497151929968,0.0017687286581304917,-0.7138513715318268,-0.6084480588541669,-0.13238998107624386,0.13592743839250485
250.0,-0.6658632911073075,-0.0026625159619313443,-0.7189392267868225,-0.6127873554277924,-0.13747661142606815,0.13215157950220546
