c [mM],best recog (Mg),best recog (Ca),MC 90% recog lo (Mg),MC 90% recog hi (Mg),MC 90% recog lo (Ca),MC 90% recog hi (Ca)
1.0,-0.2828504679085686,-0.34324433917644726,-0.31378987243343703,-0.2519110633837002,-0.3623405758813387,-0.3241481024715558
1.0471285480508996,-0.2841639943717862,-0.34523993085837645,-0.3152998207114587,-0.2530281680321137,-0.364568650219981,-0.3259112114967719
1.096478196143185,-0.2855301777039507,-0.3473106058521651,-0.3168256826840583,-0.25423467272384315,-0.3668022529891065,-0.3278189587152237
1.1481536214968828,-0.2869506686685295,-0.3494582530820214,-0.31842916669274873,-0.2554721706443102,-0.3691364269931704,-0.3297800791708724
1.202264434617413,-0.2884271251748203,-0.35168471870760953,-0.32016353975470613,-0.2566907105949344,-0.37157774161011814,-0.33179169580510093
1.2589254117941673,-0.2899612072369937,-0.35399179536994474,-0.3219677502815227,-0.2579546641924647,-0.37410190149182776,-0.3338816892480617
1.318256738556407,-0.2915545713846459,-0.3563812106221729,-0.323846527593105,-0.2592626151761868,-0.37671127399160265,-0.3360511472527431
1.3803842646028848,-0.29320886449691663,-0.3588546145396876,-0.3257916411132822,-0.2606260878805511,-0.3794277040372588,-0.3382815250421164
1.4454397707459274,-0.2949257170335482,-0.36141356651227596,-0.3277410670507685,-0.2621103670163279,-0.38225981983547896,-0.34056731318907296
1.5135612484362082,-0.296706735638784,-0.3640595212306401,-0.3298037427085436,-0.2636097285690244,-0.3852414319532178,-0.3428776105080624
1.5848931924611136,-0.2985534950967761,-0.3667938138904052,-0.33192170436140156,-0.2651852858321506,-0.3882962863159024,-0.34529134146490803
1.6595869074375607,-0.30046752962092604,-0.3696176446491819,-0.3341848513605369,-0.2667502078813152,-0.39144207853585317,-0.34779321076251063
1.7378008287493754,-0.3024503234641127,-0.3725320623856607,-0.3364965227897814,-0.268404124138444,-0.3946526431254453,-0.35041148164587615
1.8197008586099834,-0.3045033008422813,-0.3755379478248839,-0.3389043123669282,-0.27010228931763436,-0.3979755162306107,-0.3531003794191571
1.9054607179632472,-0.30662781517014714,-0.37863599610995635,-0.3414236734041616,-0.2718319569361327,-0.4014142481638432,-0.3558577440560695
1.9952623149688795,-0.30882513761545205,-0.38182669891796106,-0.3440213108730836,-0.2736289643578205,-0.40502127486665646,-0.35863212296926567
2.0892961308540396,-0.31109644498662625,-0.3851103262362461,-0.3466636863729516,-0.2755292036003009,-0.408818037401094,-0.36140261507139815
2.1877616239495525,-0.3134428069784949,-0.38848690793453766,-0.3494309609374392,-0.27745465301955063,-0.41260646718880256,-0.36436734868027276
2.290867652767773,-0.31586517281144744,-0.3919562152882019,-0.35227918866441127,-0.2794511569584836,-0.4166697056369245,-0.3672427249394793
2.3988329190194904,-0.31836435731155,-0.395517742628007,-0.3551886824693994,-0.2815400321537006,-0.42072201075094817,-0.3703134745050658
2.51188643150958,-0.3209410264920294,-0.39917068931168753,-0.3582030825729399,-0.28367897041111884,-0.4249393637651379,-0.37340201485823715
2.6302679918953817,-0.32359568271080796,-0.4029139422320842,-0.36143733319179666,-0.28575403222981927,-0.42917306863536936,-0.37665481582879906
2.7542287033381663,-0.32632864949359774,-0.40674605909477535,-0.3646863514281664,-0.2879709475590291,-0.4334946242906944,-0.3799974938988563
2.884031503126606,-0.32914005612807706,-0.41066525271497856,-0.3680458219088693,-0.2902342903472848,-0.4379184542352127,-0.3834120511947444
3.019951720402016,-0.3320298221508562,-0.4146693765979217,-0.3715996221741785,-0.29246002212753386,-0.4424536567337004,-0.386885096462143
3.1622776601683795,-0.3349976418658116,-0.41875591207849006,-0.3752415195125918,-0.2947537642190314,-0.4471001475981978,-0.39041167655878234
3.311311214825911,-0.3380429690490274,-0.4229219573042604,-0.3789512833370561,-0.29713465476099876,-0.4518498741406819,-0.3939940404678389
3.4673685045253166,-0.34116500201215505,-0.4271642183499962,-0.38276992080742256,-0.29956008321688754,-0.4567479814242318,-0.3975804552757606
3.630780547701014,-0.3443626692117858,-0.4314790027510327,-0.38669633490767324,-0.3020290035158984,-0.46176435565983986,-0.4011936498422255
3.8018939632056115,-0.3476346156071095,-0.4358622157369485,-0.390719148273444,-0.304550082940775,-0.4667702117111861,-0.4049542197627109
3.9810717055349722,-0.3509791899813086,-0.440309359435056,-0.39485077479114034,-0.3071076051714769,-0.47186106788631577,-0.40875765098379624
4.168693834703354,-0.3543944334530522,-0.44481553529508044,-0.39909072796274325,-0.3096981389433612,-0.4770841002311954,-0.4125469703589655
4.36515832240166,-0.35787806941296996,-0.44937544996164025,-0.4034382202731094,-0.31231791855283053,-0.4823778696358806,-0.4163730302873999
4.570881896148751,-0.3614274951250689,-0.4539834247897172,-0.40789214892281234,-0.31496284132732544,-0.48777253496878614,-0.42019431461064827
4.786300923226384,-0.3650397752346919,-0.45863340916004525,-0.4124330954081926,-0.31764645506119116,-0.49323895826333,-0.4240278600567605
5.011872336272724,-0.368711637421832,-0.46331899770663654,-0.4170627796675415,-0.3203604951761225,-0.49872073344130613,-0.42791726197196694
5.248074602497725,-0.3724394704312921,-0.4680334515178268,-0.42179582582259734,-0.3230831150399869,-0.5041735593076436,-0.43189334372801
5.495408738576245,-0.3762193246987131,-0.47276972331590095,-0.4266299753459209,-0.3258086740515053,-0.5097442691956322,-0.43579517743616975
5.7543993733715695,-0.3800469157736446,-0.4775204865593805,-0.43160701118952627,-0.3284868203577629,-0.515351617821431,-0.43968935529732994
6.025595860743578,-0.38391763071746077,-0.48227816834753234,-0.43668551445600995,-0.3311497469789116,-0.5209485389668481,-0.4436077977282165
6.309573444801933,-0.387826537624818,-0.48703498593988837,-0.4418686346464603,-0.3337844406031757,-0.5265668749488023,-0.44750309693097445
6.606934480075961,-0.39176839838270805,-0.4917829866357435,-0.4471410715721613,-0.3363957251932548,-0.5323301199161365,-0.4512358533553505
6.918309709189364,-0.395737684741273,-0.49651409069172203,-0.4524653392807598,-0.3390100302017862,-0.5381174573965851,-0.45491072398685894
7.244359600749901,-0.3997285977256908,-0.5012201368908791,-0.45789127088764087,-0.34156592456374074,-0.5439037772235938,-0.4585364965581643
7.5857757502918375,-0.40373509036930155,-0.5058929303162536,-0.46338626880880507,-0.34408391192979804,-0.5496925549996481,-0.4620933056328591
7.943282347242816,-0.40775089369565976,-0.510524291827231,-0.4689345943599378,-0.3465671930313817,-0.555487143808694,-0.4655614398457681
8.31763771102671,-0.41176954582205294,-0.5151061086898299,-0.4745438889040588,-0.3489952027400471,-0.5612491946414174,-0.4689630227382423
8.709635899560807,-0.41578442400058435,-0.5196303857739126,-0.4801829814256272,-0.3513858665755415,-0.5668660530996522,-0.472394718448173
9.120108393559097,-0.4197887793563879,-0.5240892967024569,-0.48579528841301134,-0.3537822702997645,-0.5724610948795353,-0.47571749852537837
9.549925860214358,-0.4237757740271668,-0.5284752343216517,-0.49144288697755595,-0.3561086610767777,-0.578116837132306,-0.47883363151099734
10.0,-0.42773852035561255,-0.5327808598563699,-0.4971864054961548,-0.3582906352150703,-0.5837280134891082,-0.48183370622363164
14.89795918367347,-0.46002966095497033,-0.5657692664809089,-0.5474721247844849,-0.37258719712545574,-0.6281953002574332,-0.5033432327043845
19.79591836734694,-0.47943383344465396,-0.5835927087117452,-0.5822976755471241,-0.37656999134218383,-0.6557779380789743,-0.511407479344516
24.693877551020407,-0.49173899739473415,-0.5939381904797412,-0.6072734208022157,-0.3762045739872526,-0.6739167809887103,-0.513959599970772
29.591836734693878,-0.4998717438872595,-0.6011086633944551,-0.6259472569969753,-0.3737962307775437,-0.6865091954208398,-0.5157081313680705
34.48979591836735,-0.5054891785746047,-0.6072262753202493,-0.6406207937216969,-0.3703575634275126,-0.6956503739170291,-0.5188021767234695
39.38775510204081,-0.5101795311309067,-0.6124947078028558,-0.6523016585616012,-0.36805740370021234,-0.7025793961928102,-0.5224100194129013
44.285714285714285,-0.514341079717169,-0.6170691867049252,-0.661894098527523,-0.3667880609068151,-0.7082328549539847,-0.5259055184558656
49.183673469387756,-0.5180521314597892,-0.6210720789022761,-0.6698461376102363,-0.3662581253093422,-0.7130799934257226,-0.5290641643788296
54.08163265306123,-0.5213776482703618,-0.6246002429722282,-0.6763449372476888,-0.36641035929303484,-0.7173486560600272,-0.5318518298844291
58.9795918367347,-0.5243716559552662,-0.6277308234662042,-0.681817179884757,-0.3669261320257755,-0.7211426051443421,-0.5343190417880663
63.87755102040816,-0.5270792052056568,-0.6305257237572466,-0.6865332533289878,-0.3676251570823256,-0.7244704758802629,-0.5365809716342302
68.77551020408163,-0.5295379910858387,-0.6330350178148643,-0.6906326738760793,-0.368443308295598,-0.7272912259261018,-0.5387788097036267
73.6734693877551,-0.5317796825863703,-0.635299542346973,-0.6942276348203129,-0.3693317303524277,-0.7298081422351343,-0.5407909424588115
78.57142857142857,-0.5338310060115745,-0.6373528686440997,-0.6974134661367823,-0.3702485458863667,-0.732065863773929,-0.5426398735142703
83.46938775510205,-0.5357146234677534,-0.6392228090781247,-0.7003515151390785,-0.3710777317964285,-0.7341060913998497,-0.5443395267563996
88.36734693877551,-0.5374498437371322,-0.640932575115956,-0.7029856431578454,-0.37191404431641906,-0.7359773505720084,-0.5458877996599036
93.26530612244898,-0.5390531976218096,-0.642501673745806,-0.7053602404814205,-0.37274615476219863,-0.7377151622313285,-0.5472881852602836
98.16326530612245,-0.5405389044290341,-0.6439466066075301,-0.7075115174531776,-0.37356629140489045,-0.7393077015703873,-0.548585511644673
103.06122448979592,-0.5419192512851563,-0.6452814194021199,-0.7094746171473995,-0.3743638854229131,-0.7407724187097187,-0.5497904200945212
107.9591836734694,-0.5432049026791623,-0.6465181369008048,-0.7112901684769901,-0.3751196368813345,-0.7421633220926313,-0.5508729517089784
112.85714285714286,-0.5444051540932269,-0.6476671099098086,-0.7129760020835327,-0.375834306102921,-0.7434633253154339,-0.5518708945041833
117.75510204081633,-0.5455281407166344,-0.648737293978602,-0.7145455356582893,-0.37651074577497945,-0.74467133143479,-0.552803256522414
122.6530612244898,-0.5465810099608377,-0.6497364748078263,-0.7160103980996253,-0.3771516218220501,-0.7457701746373948,-0.5537027749782577
127.55102040816327,-0.5475700646930033,-0.6506714517401426,-0.7173807180854439,-0.3777594113005626,-0.7467707370317229,-0.5545721664485623
132.44897959183675,-0.5485008826879594,-0.6515481880588303,-0.7186653584901381,-0.37833640688578063,-0.747706520510083,-0.5553898556075776
137.3469387755102,-0.5493784166842306,-0.6523719348282033,-0.7198721081559311,-0.37888472521253014,-0.7485836108530162,-0.5561602588033905
142.24489795918367,-0.550207078553079,-0.6531473335089242,-0.7210078398111829,-0.3794063172949752,-0.7494073555744594,-0.556887311443389
147.14285714285714,-0.5509908103987238,-0.6538785014420201,-0.7220786409132072,-0.3799029798842404,-0.7502036308773997,-0.5575533720066405
152.0408163265306,-0.5517331448620078,-0.6545691034248002,-0.7230899226840196,-0.3803763670399959,-0.7509872411317899,-0.5581509657178105
156.9387755102041,-0.5524372564672162,-0.6552224119322454,-0.7240465114665418,-0.38082800146789064,-0.7517276653615225,-0.5587171585029683
161.83673469387756,-0.5531060055075998,-0.6558413580189599,-0.7249527256588805,-0.38125928535631914,-0.7524283735983266,-0.5592543424395933
166.73469387755102,-0.5537419756904973,-0.6564285745330052,-0.7258124408154513,-0.3816715105655434,-0.75309247424435,-0.5597646748216604
171.6326530612245,-0.5543475065427517,-0.6569864329563857,-0.7266291449857656,-0.38206586809973775,-0.7537227599322474,-0.560250105980524
176.53061224489795,-0.554924721399984,-0.657517074937501,-0.7274059859573584,-0.3824434568426095,-0.7543217465865084,-0.5607124032884936
181.42857142857144,-0.5554755516601739,-0.6580224393831151,-0.7281458117519671,-0.3828052915683807,-0.7548891328470566,-0.5611557459191736
186.3265306122449,-0.5560017578658827,-0.6585042858197712,-0.7288512054729879,-0.3831523102587775,-0.75542850094533,-0.5615800706942123
191.22448979591837,-0.5565049480850335,-0.6589642146082939,-0.7295245154025893,-0.3834853807674776,-0.7559429148005065,-0.5619855144160814
196.12244897959184,-0.5569865939828182,-0.6594036844933986,-0.7301678810872397,-0.38380530687839676,-0.7564340656203099,-0.5623733033664873
201.0204081632653,-0.5574480449139814,-0.6598240278880949,-0.7307832560218648,-0.38411283380609795,-0.756903495288102,-0.5627445604880879
205.9183673469388,-0.5578905403124974,-0.6602264642258087,-0.7313724274390744,-0.38440865318592043,-0.7573526124747828,-0.5631003159768345
210.81632653061226,-0.5583152206125463,-0.6606121116584971,-0.7319370336254726,-0.3846934075996201,-0.7577659462194237,-0.5634582770975705
215.71428571428572,-0.5587231368988701,-0.6609819973343214,-0.7324785791182162,-0.38496769467952396,-0.7581511080839028,-0.5638128865847399
220.6122448979592,-0.5591152594548494,-0.6613370664515932,-0.7329984480784656,-0.38523207083123323,-0.7585205072634581,-0.5641536256397283
225.51020408163265,-0.5594924853517371,-0.6616781902552731,-0.7334979160918932,-0.38548705461158106,-0.7588750914723175,-0.5644812890382287
230.40816326530611,-0.5598556452016763,-0.6620061731170019,-0.7339781606079088,-0.3857331297954438,-0.7592157339828113,-0.5647966122511926
235.3061224489796,-0.5602055091795783,-0.6623217588186727,-0.7344402701973332,-0.38597074816182353,-0.759543240790094,-0.5651002768472514
240.20408163265307,-0.5605427924042381,-0.6626256361419136,-0.7348852527816603,-0.38620033202681586,-0.759858356965414,-0.5653929153184132
245.10204081632654,-0.560868159756517,-0.6629184438511273,-0.7353140429647197,-0.3864222765483144,-0.7601617723031064,-0.5656751153991482
250.0,-0.5611822302018838,-0.6632007751453761,-0.7357275085789504,-0.3866369518248173,-0.7604541263511955,-0.5659474239395568
